y[m],u[m/s],v[m/s],vorticity[1/s]
35.668522917592,178.44099956737298,-0.23367337892266668,-14.736124442937333
35.442772770492,179.06401107198363,-0.198457513839,-13.288006595826667
35.217022623292,179.55088799055966,-0.25622571961233337,-11.674572601423
34.991272476092,180.00246966852134,-0.3131552678383333,-10.981559507255334
34.765522329192,180.392927716087,-0.354337243199,-9.510246217284667
34.539772182193,180.722017991716,-0.3979993362510001,-8.176137952667998
34.314022034192,181.0132894449567,-0.4380649775896666,-7.046982120671667
34.088271887193,181.3134365597417,-0.4794207202196667,-6.800499431403668
33.862521740192,181.57144909137,-0.5346645412446666,-5.534367765777
33.636771593192,181.78871413629201,-0.5742636889086666,-5.127365359012
33.411021446193,182.02479015244398,-0.6202531400353334,-5.031610225574333
33.185271299193,182.25987885517665,-0.6671989075083333,-4.141714746922333
32.959521151193,182.456021913616,-0.7231739059396668,-3.466829206576667
32.733771004193,182.612318748712,-0.8048677073786666,-3.0987056203436665
32.508020857192,182.78912016100332,-0.866064230752,-3.3670228560616664
32.282270710193,182.96096750322033,-0.9221351274956665,-3.1155619205360003
32.056520563193,183.13533358463667,-0.982990928754,-2.8615329765476663
31.830770415191,183.2833303889747,-1.0277430948996666,-2.288027241454
31.605020268191,183.40657631858866,-1.0721219631853334,-1.495485407328
31.379270121191,183.51720486184468,-1.1161286759103335,-1.257874864335
31.15351997419,183.63170833528133,-1.15703798692,-1.1639982950366665
30.927769827195004,183.73341339577033,-1.1964267495453333,-1.037464675261
30.702019680194,183.8270912557613,-1.2423241221306667,-0.6023172449933333
30.476269532194,183.91093172105232,-1.2741380954386667,-0.3836452732563333
30.250519385193,183.98225239445597,-1.3029253959566667,-0.3383914735863333
30.024769238192004,184.05795849001368,-1.3354180214883333,-0.550754981317
29.799019091191,184.156895257976,-1.3813989119216668,-0.864966320152
29.57326894419,184.27030399774569,-1.4377064882630002,-1.1286317491843334
29.347518797190002,184.38713858022734,-1.4823042543116667,-0.8232007772203334
29.121768649189004,184.47036227450835,-1.5134521811059998,-0.08572580575333334
28.896018502192003,184.52248791999634,-1.5518622839156666,0.3086944379073333
28.670268355191,184.56174826046333,-1.606526710663,0.12190640456000001
28.44451820819,184.61829307943867,-1.6509402550003334,-0.08693825178433341
28.218768061189,184.66559879643398,-1.6779297456659998,-0.3239877012253333
27.993017914196,184.745949534633,-1.69791985878,-0.5788293052213334
27.767267766195,184.816661021986,-1.7215822755523333,-0.35376666051533334
27.541517619195,184.87233281570533,-1.7517939233226667,-0.3024739433716666
27.315767472194,184.92475851955967,-1.7720860451316665,0.027798440725666607
27.090017325196,184.952992464456,-1.7917363048300003,0.5368082424413334
26.864267178194996,184.96338945973068,-1.804458625835667,0.6447947690393333
26.638517030195,184.982109025755,-1.8142127596213333,0.4039054289183333
26.412766883194,185.01293877562898,-1.8259249724803333,0.14826925260766677
26.187016736192003,185.0483808246993,-1.833243970311,0.22893770989099993
25.961266589191,185.065327739465,-1.8188685434513332,0.4628795327953334
25.735516443191,185.07201784224867,-1.811870425204,0.7888965772826665
25.50976629319,185.05408533092566,-1.808839271078,1.6123667825016668
25.28401614319,184.9965027280123,-1.8062156837390002,2.2273972272100004
25.05826600319,184.91128469938334,-1.8063522531510001,2.506799825132
24.832515853191,184.83285658421633,-1.8045814681333334,2.5201533660660003
24.606765703189,184.746649878035,-1.7914162104363331,2.4970987333639996
24.381015563191,184.65844524766302,-1.7816718439816663,2.3474459010833333
24.155265413189,184.58317381926065,-1.765856983379,2.451538884727
23.929515263197,184.4831269783797,-1.7535208443093335,3.1019309188356665
23.703765113195,184.35152991231067,-1.7410552386709999,3.6597015007223335
23.478014973197002,184.19537869291267,-1.7102931230273333,4.1169369061709995
23.252264823195002,184.02077697212266,-1.6775267413010002,4.318076558962333
23.026514673195,183.850855869946,-1.6542596886643335,4.505719322578667
22.800764533196,183.653521061799,-1.625619173237,5.310066727734667
22.575014383195,183.42409758936765,-1.6033067934566665,6.120521723033334
22.349264233192,183.161246625903,-1.580653069828,6.690897849003332
22.12351408319,182.87623688162202,-1.560049663201,7.103876096341666
21.897763943192,182.58108159007168,-1.5377821585996667,6.936199779762667
21.67201379319,182.30832331533634,-1.503282206770333,6.567497311553001
21.446263643189997,182.037807396683,-1.4767670958493333,7.072283299876001
21.220513503189,181.72421770902733,-1.465543119173,7.898011617121999
20.994763353189,181.37260430497733,-1.443924705465,8.161252314511334
20.769013203187,181.04477869605066,-1.4073820754176667,8.200222893868998
20.543263053192,180.68948843003736,-1.3643648704953335,9.266921898489
20.317512913186,180.28055714361233,-1.321954517987,9.983422439636666
20.091762763191,179.86642037442098,-1.267817067738,9.830812429975667
19.866012613189,179.47522069002298,-1.2012166686463333,9.657829771672999
19.64026247319,179.069408317058,-1.1377074141463333,9.644085054822
19.414512323188,178.67501367241198,-1.0911698931023333,10.111292059134668
19.188762173187,178.23376859112167,-1.0406840170193334,10.857640748281334
18.963012023185,177.78131519973567,-0.9967426949636667,10.871848728758666
18.737261883186,177.32772603796636,-0.963342285429,10.999865968881332
18.511511733184,176.873005259671,-0.9262752692176667,11.271371582416998
18.285761583201,176.404522800749,-0.8732408582116666,11.842751213686666
18.060011433199,175.90276589767868,-0.805388086733,12.296355894420001
17.8342612932,175.392959443858,-0.7337153010256667,12.252312257584668
17.608511143199,174.88859932603336,-0.6619812773403333,12.21549284479
17.382760993198,174.3861987341137,-0.6021741017883333,12.336625934623001
17.157010853198,173.87845557569665,-0.5531099078126667,12.906597589450334
16.931260703198,173.33332800246168,-0.4912182337203334,13.681724929786332
16.705510553196,172.76446323342768,-0.4282847299716667,14.315461168564333
16.479760403199,172.166299278131,-0.3576941720673333,14.818520513829334
16.254010263195,171.55179486225498,-0.29485115877566664,15.166342457197999
16.028260113199,170.92458581737137,-0.22154239291466668,15.550248739894998
15.802509963197002,170.271900111128,-0.15212158035,15.984032531378
15.576759823199,169.60654921355498,-0.09005764956366669,15.865996765363
15.351009673195998,168.968720139483,-0.027186208180000004,15.782387671782333
15.125259523195,168.32168702111667,0.03285504915066665,16.224731434696
14.899509373193,167.65054701004433,0.091616635055,16.291234236973335
14.673759233195,166.99639040784734,0.16358982888266668,16.065516869114667
14.448009083192,166.34391121699102,0.23012994343166668,15.894330769784668
14.22225893319,165.69718016890067,0.2645161347316667,15.668161429872333
13.996508793192,165.06229410101332,0.2939394569603333,15.544896094568665
13.77075864319,164.42666388382568,0.34529347932666665,15.585829535533335
13.545008493189,163.80008226143,0.40912648446933336,15.343114756773334
13.319258343186,163.17676093416267,0.4756728741676666,15.650580544621667
13.093508203188,162.53751025225367,0.5308409859340001,16.425351162490667
12.867758053186,161.85424181924,0.5717465617293334,17.23039697786
12.642007903188,161.15024436932103,0.628855903821,17.510882222512667
12.416257763185,160.43119736833233,0.680547886265,17.797926787800332
12.190507613187,159.70629854920466,0.7365111491156666,17.843555457318
11.964757463185,158.98835836722867,0.82112685957,17.889004038771333
11.739007313183999,158.25101384158765,0.8914094196100001,18.077852992460333
11.513257173184,157.51659654619402,0.9575006837136667,18.35360165818167
11.287507023183002,156.758898446819,1.037437108529,18.288815627052
11.061756873181002,156.023896251489,1.1245600271290002,18.026365568796333
10.836006733181998,155.29173434697435,1.209225099011,18.67577380647067
10.61025658318,154.50899769061235,1.3018865275293334,19.680572137736664
10.384506433196,153.69125474176099,1.4018251083866666,20.448468652851332
10.158756283193,152.85207964612533,1.510058793362,20.786690831091335
9.933006143195,152.00642759267066,1.6196362028006668,20.74016309379
9.707255993192,151.17633425117435,1.706277566951,20.576273126830333
9.481505843191,150.34012802475434,1.7641191080983336,20.907920910955003
9.255755703191,149.48383547159767,1.8176528038580002,20.96832101991033
9.03000555319,148.64592361633365,1.8701792482533335,20.220540311315332
8.804255403187,147.84621679300133,1.9364668794576667,19.821180879992667
8.578505253189,147.041736141182,1.9887356196483335,19.316673200958665
8.352755113186,146.27043010606033,2.039447919651,18.828397233843667
8.127004963188,145.50471288690832,2.0750901764046668,19.200533013744
7.901254813185001,144.70650425175802,2.097348426395,20.315812415599336
7.675504663183001,143.857411004891,2.1328295303063336,21.675752222727997
7.4497545231840006,142.95189854759835,2.1788486916533336,22.990069604197334
7.224004373182001,142.00982122635435,2.2128204460596668,22.949952124951665
6.998254223180001,141.08449413706967,2.247467896386333,22.128205770995667
6.772504083181,140.20976159358736,2.284852513232,20.122862301289334
6.546753933179001,139.45019253098667,2.302460460237333,18.473286641517
6.321003783204,138.69096550651065,2.303012735454,19.637565298118332
6.095253633202,137.82847142811968,2.301603011086,20.854814107141667
5.869503493204,136.99122454337734,2.3271786632193336,20.679152135165335
5.643753343203,136.12735342035535,2.3552833505643336,21.824181815592
5.418003193201,135.22018535520132,2.3611853914116665,22.600486713547
5.192253053203,134.29754646143667,2.3530734910963336,22.767683382084332
4.966502903201,133.36815755920134,2.3252533687056665,23.470525844508
4.740752753202,132.38616832351101,2.284443725402,24.775784731962002
4.5150026032,131.35263342228936,2.232876499998667,25.693006518171668
4.289252463202,130.298562064301,2.1908977258846667,26.384334662679333
4.0635023132,129.22242533779334,2.1452801713946665,26.74862442680733
3.8377521631979996,128.12379129605065,2.131775959423667,27.490139793743335
3.612002023199,126.98451941661101,2.0916612026313337,28.71697256559567
3.3862518731980003,125.78215079309166,2.04229025028,30.944674768582335
3.1605017231960004,124.49186899905665,1.9471415324233334,31.381266179842
2.934751573208,123.23793487456233,1.880991900715,31.238094809041666
2.709001433195,121.96427910942667,1.8224765870919999,33.246519143763
2.483251283207,120.54549852044835,1.746636030987667,37.58611634019767
2.257501133205,118.91876855512601,1.6094867339660002,42.15638899657301
2.031750993206,117.14495732478532,1.4514329717483336,45.88928637951367
1.806000843204,115.22181799662833,1.3291446790653334,50.566911967193334
1.580250693203,113.06101245543,1.1998016991143334,57.579409430850326
1.3545005431999997,110.55391763344566,1.0370303747943332,67.463493191147
1.128750403202,107.59319713023433,0.8453812770139999,81.67772721476133
0.9030002532,103.92099203357668,0.641506825838,100.97924957975466
0.677250103201,99.35665748660233,0.43298209086199996,118.47817388077367
0.451499963199,94.25975517040798,0.2653277440713333,115.30520855385465
0.2257498132,90.04425931639366,0.03535310511266667,107.15711622255166
