y[m],u[m/s],v[m/s],vorticity[1/s]
37.925978766111,156.71007261956333,-0.9999081685336666,-62.33227793941833
37.682863519212,159.45373541048232,-1.0241106222260001,-53.32159202122267
37.439748272211,161.43552384929367,-1.099689794811,-44.284681834189335
37.196633024812,163.31968473927031,-1.110208848886,-42.870220880456664
36.953517777812,165.17467044578032,-1.0798014490860002,-40.02871567546967
36.710402530811,166.81503558218034,-1.0373353224673332,-36.68248571022767
36.467287284812,168.37941024386865,-0.9945887567516666,-34.772250261822
36.224172037811,169.86613478513502,-0.9692420238126666,-31.875860459439668
35.981056790811,171.16527947618934,-0.9537663060016667,-28.370698607087334
35.737941543812,172.34371398577267,-0.9198620450716666,-26.087098831678333
35.49482629681,173.44915162439133,-0.8802832589773333,-24.380053266637333
35.251711049812,174.47735295276098,-0.8331990228676668,-22.277554879031
35.008595802812,175.417120538857,-0.7915728497419999,-20.526266849107333
34.76548055581,176.2906539277627,-0.7632423549106667,-18.973047155944332
34.522365308812,177.10785845294097,-0.7387582465066668,-17.82208084731967
34.279250061812,177.88011921370534,-0.6973384700996667,-16.995517256762668
34.03613481481,178.617961198466,-0.65357258188,-15.549083022290333
33.793019567811,179.263268906886,-0.6212434459663333,-13.517138654939666
33.549904320813,179.82882851943,-0.6281309435479999,-11.706173309926
33.306789073814,180.30961320328,-0.6443606373733334,-10.126671179757667
33.06367382681,180.7388650853537,-0.6615071042283334,-9.325593560374333
32.820558579812,181.15582049364934,-0.6640357885486666,-9.111291179870667
32.577443332812,181.56897069581296,-0.6526106377743334,-8.551902235630667
32.334328085811,181.9349332018693,-0.6414029793306667,-7.237368781393333
32.091212838811,182.23979158083833,-0.641424004244,-6.0392521647486666
31.848097591811,182.51982661921735,-0.6653835682916667,-5.516881410773333
31.604982344811003,182.7759292267523,-0.671978394014,-4.778842880000667
31.361867097809995,182.9832448470353,-0.662444542173,-3.6488117688336668
31.118751850809,183.1477568858727,-0.6646764630806666,-2.770515721947
30.875636603814,183.27068517056668,-0.6852510533773334,-2.1305282701693335
30.632521356808997,183.38285244958203,-0.729182605237,-1.9096444784170001
30.389406109815,183.49059956832366,-0.763803941512,-1.893192746605
30.146290862813,183.59856033008336,-0.799475904705,-1.6799808374646668
29.903175615808,183.68474489535333,-0.8419684615063333,-1.0157151857706668
29.660060368815,183.73444653203467,-0.8835263045316667,-0.29647505998066664
29.416945121813,183.75461431891335,-0.9095654169670001,0.054555327207333325
29.17382987481,183.766126781353,-0.9467230695136667,0.10238136795899998
28.930714627814996,183.78146642842367,-0.9944017914506667,0.252948660837
28.687599380812,183.791330577251,-1.055014107433,0.4434984856803333
28.444484133808,183.77989413437967,-1.1086634264526667,0.6766365806623332
28.201368887814,183.758992721172,-1.163715564206,0.789351469822
27.95825363781,183.73579667795198,-1.2247908048113334,0.8636371849160001
27.715138397809,183.707738421418,-1.2690975026696665,0.9274635650156666
27.472023147814,183.67253561340536,-1.3036532656626667,1.0505687893346667
27.228907897811,183.64016349943836,-1.3679047200546668,0.831878613757
26.985792647813998,183.62380574568132,-1.432716331439,0.5884657210723335
26.742677407815,183.61592536121967,-1.5017369097426665,0.5661367589806667
26.499562157811,183.599359073674,-1.5639591085963334,0.7197177990709999
26.256446907813,183.56644268845866,-1.6239074442409998,1.0869749784626666
26.013331667815,183.51209447277066,-1.6927348886940001,1.3159379455596667
25.770216417811,183.45825415990234,-1.7681863588556668,0.9446586692123332
25.527101167811,183.43645961709635,-1.8140583266313335,0.6014673845523332
25.283985927814,183.40824669737003,-1.8531447425186667,0.7086130748216667
25.040870677814,183.371652500733,-1.8936577556766665,0.692669960027
24.79775542781,183.34118860115936,-1.936947508977,0.588299575789
24.554640177808995,183.32278530577233,-1.9751937079469999,0.276061550127
24.311524937814,183.329880699357,-2.0089950164063333,-0.20560696465766667
24.068409687808,183.36008850301732,-2.032896277321,-0.5350678726033333
23.825294437809003,183.3911642769323,-2.0662745931806668,-0.568155137993
23.582179197813,183.41093084737932,-2.103373153499333,-0.5250597089923333
23.339063947808,183.43451828917534,-2.1493127458686665,-0.4067050769513334
23.095948697808,183.4384385212537,-2.1915619822366668,-0.2514611083800001
22.852833457812995,183.44904852992298,-2.216239391677,-0.401718532759
22.609718207807003,183.47393297480266,-2.2267023333613336,-0.265792460124
22.366602957807,183.47650020344363,-2.239110855197667,-0.20356326484699996
22.123487717813003,183.4945374577503,-2.258484622381667,-0.7656489841359999
21.880372467805,183.54441689629266,-2.293053407714667,-1.0825251566233334
21.637257217808,183.58292538307134,-2.315668323601,-0.4975004138816667
21.394141967816,183.58708343766,-2.325703371539667,0.12069467030600005
21.151026727804,183.568688763913,-2.330031334486,0.2708615240713333
20.907911477807,183.56648661617467,-2.3467306793296667,0.21970949768433337
20.664796227815,183.54918580997534,-2.365518424456333,0.6320820910286666
20.421680987803,183.517355871149,-2.3876760206843333,0.5452229032033333
20.178565737806,183.50672183583367,-2.4059201729566664,0.5579406009236667
19.935450487816,183.47412815553233,-2.428691599089667,1.1372621903826667
19.692335247801,183.41519481593468,-2.439445096575333,1.4740290165933334
19.449219997805,183.36173123764368,-2.440840538125,1.4065565620463332
19.206104747815,183.3152456723723,-2.445772853873,1.4028816975206666
18.962989497817,183.26130205199502,-2.454370231478,1.5546802880696664
18.719874257804,183.19709791637266,-2.4485498899239997,2.0331260603296664
18.476759007814,183.10176201972934,-2.452293366068,2.19833631365
18.233643757818,183.01699542373433,-2.4409408584943333,2.0616668624170003
17.990528517803,182.93640769371436,-2.432904117340667,2.2191270035963337
17.747413267813,182.84373100780303,-2.4233737255436667,2.7378788650386667
17.504298017817,182.72173902560266,-2.429200400528,3.378838472694667
17.261182777809,182.57744948606168,-2.4279044434259998,3.581116721069
17.018067527812,182.43953709988867,-2.4281407859776665,3.5001871329229997
16.774952277815,182.29836349990134,-2.4153780878246667,3.8493393062863333
16.531837027806,182.13228002936702,-2.4216183521793333,4.406697444625667
16.288721787811,181.93794635566633,-2.4329753639696667,4.601612947497667
16.045606537813,181.75627410260836,-2.445546115528,4.925638953868667
15.802491287806,181.52907814479332,-2.4308289778353336,6.214781723111667
15.55937604781,181.244708049878,-2.4198814500549997,6.656718136015666
15.316260797811,180.97249182660002,-2.435895374947,6.441895317116
15.073145547807,180.70381641953966,-2.445527338603,6.53863753542
14.83003030781,180.42526919944535,-2.4586910837916665,6.661165272436667
14.586915057814002,180.149577117784,-2.4733428464863336,6.424870071077667
14.343799807807,179.89211546245835,-2.484629392785,6.393446716849667
14.100684557806,179.62107328090235,-2.4885233699200002,6.7300146251360005
13.857569317812,179.33812953674132,-2.4843648484093332,6.849736825811999
13.614454067806998,179.0607911763873,-2.4996845639653333,6.709446255879334
13.371338817805002,178.78252750836566,-2.5192208996596666,7.215371875438334
13.12822357781,178.46321779169202,-2.5392659602300003,7.801643357185999
12.885108327825,178.13934947223433,-2.5519379441796666,7.552940985872
12.641993077804,177.835852344562,-2.5511998973616667,7.1518049220140005
12.398877837808,177.542476965432,-2.566565516327667,7.312533962390667
12.155762587824,177.22700489807198,-2.604202827875,8.014952116539666
11.912647337803,176.879670706175,-2.620654679113,8.612085151489
11.669532097807,176.51621024819565,-2.6540839247193335,9.040899064037333
11.426416847824,176.12929061350334,-2.6799430461603335,9.810961790862667
11.183301597806,175.70604573260167,-2.69724007306,10.487389521155665
10.940186347802,175.24263668755233,-2.7061456805533335,11.534090630933667
10.697071107823,174.74414572786364,-2.7025945190396663,11.943146348901331
10.453955857805,174.236900187953,-2.684251870107667,12.084216393439
10.2108406078,173.72091592209134,-2.683697478445333,12.609631233427669
9.967725367822,173.17299840644034,-2.6927539720763334,13.032518361411334
9.724610117804,172.628262329098,-2.7065064173213336,12.949967300068332
9.481494867824,172.08408450959436,-2.7143013931140003,13.42257978584
9.238379627822,171.49837013812203,-2.6943722501663334,14.531407327316336
8.995264377803,170.85111183215767,-2.649371745365,15.199561883688332
8.752149127824,170.20136962069265,-2.6089616627233334,15.877303152991999
8.509033877818,169.49843653479334,-2.5648841169373338,17.292451589535332
8.265918637802,168.71525119901136,-2.516315335437,18.833939156278333
8.022803387824,167.88230214401997,-2.4384184665743334,20.008386296713
7.779688137821,167.003052157231,-2.360150463611,21.046276255758002
7.536572897801,166.06993226492764,-2.2708613935483335,22.291137775510666
7.293457647824,165.08355843823466,-2.1982456149423335,23.067620874206
7.05034239782,164.08327396539966,-2.121022091178667,23.327140768754003
6.807227157800999,163.07731227482967,-2.0532280869903334,22.756650094698
6.564111907824,162.11201108633398,-1.9827193544819999,23.55220869992867
6.320996657818999,161.07219673823133,-1.8525949698926667,24.864806349415336
6.07788140781,159.99235196325603,-1.6195143735639999,25.314596067147335
5.834766167823001,158.866540860092,-1.464051469514,26.330452788332334
5.591650917818,157.68724036045933,-1.3076368714956665,26.917065614401
5.348535667809,156.52353566737267,-1.1924150691450002,27.838500448525
5.105420427824,155.27223739355802,-1.0870781992146668,29.242539895522
4.862305177817,153.99329732824899,-0.9928778847349999,29.606881818985332
4.619189927807,152.70633442968634,-0.9103794808126667,30.496221988500665
4.376074687824,151.35637914865833,-0.8465835699113332,32.03642298234067
4.132959437816,149.92704350727502,-0.7588712538243333,33.045346586971995
3.889844187806,148.48562286548668,-0.6499427411566666,33.55415264382167
3.646728947823,146.997000463219,-0.5145080007563333,34.813985400833666
3.403613697816,145.45870084200234,-0.362935184089,35.82479230762534
3.160498447805,143.87673134524036,-0.22185548038066663,37.650609943814
2.917383197822,142.17065957784465,-0.10552309516633333,41.69196286735333
2.6742679578149997,140.24932726155703,-0.011311377953666657,46.72938233793966
2.431152707803,138.103052425705,0.076245226835,51.62730096104
2.188037457822,135.74024669969967,0.16269209254,57.46489288441066
1.944922217814,133.07831547284934,0.2410365676256667,63.79088266184234
1.701806967803,130.156062233614,0.3252235325736667,70.84117225462533
1.458691717821,126.87388273347433,0.405746892224,81.13587712579333
1.215576477813,123.03696915621931,0.4745639840690001,93.60924705453499
0.972461227801,118.63831255063367,0.4772642331916667,103.510947100301
0.72934597782,113.917678438495,0.365244866832,84.63169013699634
0.486230727808,111.18235089915868,0.24604629834966665,28.98624045671666
0.2431154878,111.56891660529733,0.05359511754633334,-6.821497369863668
