y[m],u[m/s],v[m/s],vorticity[1/s]
39.02142825429,160.52206161551598,-0.19420053369900003,-114.49462338643633
38.77288412189,165.69756471475765,-0.2991974485946667,-90.56444699205333
38.52433998949,168.68531869057298,-0.363275759033,-67.32558357650834
38.27579585689,171.728042282051,-0.3361038756256667,-65.09305529267634
38.02725172489,174.5155196619343,-0.2649151999766667,-55.82482560238467
37.778707591891,176.70786571772433,-0.260038333532,-46.971723777328
37.530163459891,178.70328719522968,-0.26347636065433333,-42.77627588738434
37.281619327891,180.503022627292,-0.3055698896196667,-40.63885131089433
37.03307519489,182.25462628687,-0.39233066074999995,-36.457559886774
36.78453106289,183.69294784055467,-0.36693791643199997,-31.223361332312333
36.53598692989,184.98864690499298,-0.33417723612666667,-28.915513516527
36.28744279789,186.25842749920267,-0.289443697577,-27.818528196200997
36.03889866589,187.45777466717598,-0.22291337521133334,-25.902942989524664
35.790354532892,188.5607668352587,-0.20323701399433333,-24.094619721519667
35.541810400891,189.57484005831034,-0.22096881075966665,-21.572138939756332
35.293266267891,190.47952667226068,-0.20985852092733334,-20.066070197486336
35.044722135891,191.34023855601603,-0.20511911093,-19.059145642899
34.79617800389,192.17161927291468,-0.18708799396700002,-18.000416489914667
34.547633870889,192.9590343155027,-0.11804383367566666,-17.328251666924334
34.299089738889,193.72393290281568,-0.07045094234066666,-16.74811591619567
34.050545606889,194.48426666406303,-0.012242786302999983,-16.070840661393333
33.80200147389,195.19163737652164,0.04941614173233333,-16.134900888982333
33.55345734189,195.92403862992833,0.07905894787033334,-16.541273547670333
33.30491320889,196.65888147948067,0.09904509140133333,-15.707469700798
33.05636907689,197.323297095886,0.12725708532033334,-14.511044232754665
32.80782494489,197.948283944576,0.158835944436,-13.887131251285
32.559280811893,198.55940698903132,0.19978102266333334,-13.454091092388
32.310736679893,199.15366026431968,0.23288031780866666,-13.261376691853668
32.062192546893,199.73442992602634,0.28654206787200004,-13.266177402082334
31.813648414892,200.32770753380635,0.3253095625733333,-12.669540022908
31.565104282891998,200.89163592082699,0.396305546104,-12.344178957762667
31.316560149892,201.47144939319932,0.4521708463936666,-13.246705953582
31.068016017891996,202.09478329903334,0.5051452479343334,-13.983336923736331
30.819471884891,202.72223840253434,0.5663786624963333,-13.832201210243333
30.57092775289,203.33390750297633,0.6276853409940001,-13.119178461005333
30.322383620889998,203.90359440785502,0.7208745770756667,-13.183558381099667
30.073839487889,204.52232579335632,0.826618973655,-13.868903778517668
29.825295355889,205.10943787549698,0.9005659507276667,-13.072536030964
29.576751222888003,205.64184382301565,0.9590064663883333,-12.594500656668332
29.328207092889,206.19979315585033,1.0127701892396666,-13.343232878570333
29.079662962889,206.80858019858897,1.0512093789626666,-14.016052320480668
28.831118822889,207.41911694997665,1.0746781621930002,-13.691199866084666
28.582574692886,207.99837112483797,1.0967253706993334,-12.936314391825666
28.334030562887005,208.55799468359302,1.1073510702936666,-12.999914064035332
28.085486432887,209.15297726699933,1.1358728521393333,-13.184528161218333
27.836942292886004,209.72781867293133,1.167040774286,-12.343853651179666
27.588398162886005,210.2403045700893,1.2066036221119998,-11.663959952741335
27.339854032887,210.74657267461467,1.2331970708489999,-11.900254096283334
27.091309902887,211.277061982663,1.2280732024349998,-11.760361184346332
26.842765762884,211.76718098296297,1.2376013646906667,-11.128051690146
26.594221632884,212.23931598819232,1.2662316719856666,-11.087810229850334
26.345677502884,212.73702035346636,1.307418994736,-11.099492472287665
26.097133372885,213.20957738437434,1.3145832213916666,-11.657479753410334
25.848589232890003,213.73706227596531,1.3260042149223334,-12.738203622953334
25.600045102890004,214.29883249720532,1.3657038893740001,-12.477501402512333
25.351500972890005,214.8412429754243,1.395903258205,-11.852223218666
25.10295684289,215.337791583246,1.3932009730276667,-11.343463712675666
24.854412702887,215.84054708619567,1.376778847904,-10.894102348369666
24.605868572887,216.30533575391132,1.4128407043973334,-10.280380126273334
24.357324442886995,216.74228359961398,1.4373348744880001,-10.06867057328
24.108780312886996,217.17880951988698,1.4614414044706667,-10.283558422043333
23.860236182886997,217.636152027731,1.4758468759216665,-9.88397157784
23.611692042885,218.044552872163,1.4897795379416667,-8.507071636600667
23.363147912885996,218.39438732691335,1.5195220999823331,-8.208656454120332
23.114603782885997,218.76331755292733,1.533362290699,-9.179462035989667
22.866059652885998,219.1856430539067,1.5377958629393333,-9.464041223867333
22.617515512882004,219.58466479966765,1.5558752319886666,-9.182206145901
22.368971382883,219.98503794649568,1.5732400444946666,-9.115678535083
22.120427252883,220.374227156149,1.578398938116,-8.857002896248668
21.871883122883002,220.76188142147666,1.5616492246750002,-8.047635195066
21.623338982898,221.08800463801967,1.5478204865423333,-7.260434220137667
21.374794852899,221.39809645705836,1.5257351597526665,-7.058109194454667
21.1262507229,221.71112181293867,1.5305523114906665,-7.189733045212333
20.8777065929,222.05196034584765,1.5358737844690002,-7.384486693114
20.629162452897,222.39218915245866,1.527954440315,-7.0186146532316664
20.380618322897,222.69512023979965,1.5006978487323333,-7.046218069910666
20.132074192898,223.02139987077837,1.4829376578556666,-7.243925719627666
19.883530062899,223.34733832189167,1.4696546356326667,-6.377041435534667
19.634985922896,223.61335681583466,1.4743010377493333,-5.478369023542334
19.386441792897,223.86693189851465,1.473384956317,-5.4312558667653335
19.137897662897,224.15507898842634,1.4394546941243334,-5.598718887325666
18.889353532898,224.42487988756932,1.4040673380996667,-5.222591623206333
18.640809392894,224.665113304035,1.4012515356153334,-5.061214433143333
18.392265262895,224.9210530230753,1.40901671285,-5.703684410116334
18.143721132894,225.20063633135302,1.410968027143,-5.8934947003666665
17.895177002896,225.47810397531566,1.4128301123623332,-5.750691624133666
17.646632872894,225.74371336771534,1.4106037101733333,-4.610167265119667
17.398088732898,225.93712521701767,1.3952968928346667,-3.482869577878333
17.149544602895,226.09391770743636,1.3762909633866667,-3.2064827607766664
16.901000472894,226.25151095457764,1.3178301159736667,-3.677732315550333
16.65245634289,226.44456017243033,1.2706642838146667,-3.7044224303233335
16.403912202896,226.61888573126836,1.2366488937183335,-3.461588301805667
16.155368072891,226.794245379668,1.1995734849466668,-3.2002798327163333
15.906823942897,226.94601939074968,1.1716925292666664,-3.0655028298526665
15.658279812891001,227.09611705327066,1.1394153705949999,-3.0308454233410003
15.409735672895001,227.23030985750066,1.081769074091,-2.72058687056
15.161191542888,227.35359770742033,1.0319070557173333,-2.1102545244883335
14.912647412893998,227.448345669398,0.9714794241916667,-1.6212357728636668
14.664103282887,227.52958560389868,0.8965999752006667,-2.085776153620333
14.415559142893,227.63940861898266,0.8212688494023332,-2.223365066917
14.167015012884,227.73448396769268,0.7524760654509999,-1.6046860703756665
13.918470882892999,227.80589801422164,0.6752112503846668,-1.4062162333426667
13.669926752884,227.88967529452634,0.5958720981123333,-1.9160907306290003
13.42138261289,227.99719479658802,0.5174492039586667,-1.9342531538549999
13.172838482880001,228.07575002884133,0.43765993081500004,-1.325879218339
12.924294352891001,228.1380581373137,0.35307178406199996,-1.0969598087126666
12.675750222881,228.19091347468768,0.27793428252633334,-0.49224959869499996
12.427206092892,228.21561010905566,0.18251768523066667,0.342022971348
12.178661952899,228.20503637392832,0.10080013866333333,0.9710147891149999
11.930117822888,228.15514604644798,0.050801097475,1.3494908434543333
11.6815736929,228.11135285549767,0.0033149437613333326,1.8250480875773334
11.433029562888999,228.03179874992233,-0.06200754138299999,2.7643321847506663
11.184485422898,227.90193511692965,-0.11255858661399999,4.142544013535
10.935941292886,227.71473103297933,-0.201439473822,4.599837621906667
10.687397162898998,227.52675583715003,-0.283091397951,4.6438600120326665
10.438853032887,227.32339492173367,-0.3467412643123333,5.099427664029
10.190308892897,227.08685920985735,-0.3967265980356667,5.867504867497668
9.941764762884,226.80898655665533,-0.46361098201400003,6.599548895719334
9.693220632899,226.52857649641433,-0.5251662893456667,7.3198689885190005
9.444676502885,226.19218714359636,-0.5796431243123333,8.727194363346001
9.196132362896,225.77882612547265,-0.622431200868,10.600554612758001
8.947588232882,225.28557008552966,-0.6509184138663334,11.959876435378666
8.699044102897,224.73864759522633,-0.6497698415236667,12.864063229261667
8.450499972882,224.16918573441163,-0.6618828044463334,13.657081541248333
8.201955832898,223.55698339721232,-0.6387154525156667,14.200860223306334
7.953411702883,222.93662041687,-0.6279586402863333,14.710466831803002
7.704867572899,222.25592045331564,-0.6479088787536667,16.582116122517665
7.456323442883,221.48051493484664,-0.6348683121446667,17.664213925640667
7.207779302896,220.68467820887702,-0.5898407181013333,18.92418757225533
6.95923517288,219.78552502263435,-0.5435107619136667,21.881053798238668
6.710691042897,218.74116624659464,-0.5037107202263333,23.828008308937665
6.462146912881,217.68960712589532,-0.4614057580203334,25.774560706935663
6.213602782899,216.462125967376,-0.4074233083246666,29.706293152940663
5.965058642878,215.0588997210457,-0.35236981736300005,32.39836856428433
5.716514512896,213.58700631380233,-0.30068485432433334,33.997347190316
5.467970382879,212.0398340651333,-0.25161651062999996,36.095312242483
5.219426252898,210.35837335779934,-0.16456807945833332,39.056905589801
4.970882112876,208.52731757998833,-0.015059056252999997,41.594101431931996
4.722337982895,206.61250858266234,0.08574508543533332,43.590336652913
4.473793852876,204.619453963041,0.15340777572133332,45.37584248764566
4.225249722896,202.51953586929199,0.24192391865533328,47.72886327842633
3.976705582886,200.30980203192235,0.3451662455556667,49.525054563389666
3.7281614529059994,198.06389485379336,0.423153171412,51.18263417178667
3.479617322886,195.6728411992033,0.44682156610999996,58.68207437044333
3.2310731929060004,192.70999023376768,0.5311824040876666,70.797031300201
2.982529052883,188.94800091105466,0.5544192028463334,76.26299323867667
2.733984922903,185.84095251139468,0.5983035053093334,53.687358207299326
2.485440792884,184.335060822321,0.6840512933713333,50.57096306702366
2.236896662904,181.40413421442736,0.6688322465886666,70.86850741912167
1.988352522881,178.09515395766599,0.680296454086,78.792867562116
1.739808392902,174.39206370384068,0.6742417442886667,87.038593830844
1.491264262881,170.25048262545002,0.744923148343,99.87453856194033
1.242720132902,165.37728865087635,0.8317057128403332,115.32348779352499
0.994175992878,159.84029206274533,0.8213908782326668,120.57909046870766
0.7456318628990001,154.503536740994,0.780992704555,81.96229431648699
0.49708773287799995,152.47918378758666,0.45107253912000006,20.307046339518667
0.2485436029,152.76509515181633,0.4543686036436667,-5.998802912904666
