y[cm],u[cm/s],v[cm/s],vorticity[1/s]
39.725990763819,160.38004316160266,-0.443481599509,-83.08633564825033
39.472959827219,163.89044105048902,-0.740017462199,-88.38846957508333
39.219928890619,167.944071643762,-0.662722287685,-103.230308761583
38.966897954419,173.05402164341766,-0.8428892268,-109.84412197674
38.713867017419,177.853098275074,-0.9348791192003333,-96.81160971093732
38.460836080419,181.7751479775243,-1.0067402355843333,-79.779971349236
38.207805144419,185.0077227842647,-1.0715769799703334,-64.37836119321867
37.95477420742,187.55327380857332,-1.153351835256,-54.613749690613666
37.70174327142,189.89715902838836,-1.1704614642636668,-50.273033086859336
37.44871233442,192.01330859211632,-1.170189342249,-46.585970834552
37.19568139742,194.00761472420334,-1.1744321712183332,-42.35457612915733
36.942650461419,195.75093432675865,-1.1721694401693334,-37.255794041733004
36.68961952442,197.29899022285102,-1.165051815294,-33.76580791794633
36.436588588419,198.706154163384,-1.1703588471253334,-30.484765013910998
36.18355765142,199.97208693083235,-1.132870782858,-28.98891711027733
35.930526714418,201.25530837619434,-1.1180583962653332,-27.235240990856
35.677495778421,202.38287102385434,-1.1069943626683334,-24.894514687226334
35.424464841418,203.45255549376,-1.0904390813076665,-22.540439383025
35.171433905421,204.37469363374035,-1.0779314730526668,-20.733956713126002
34.918402968418,205.2839675172153,-1.0576040141346665,-19.652429995128333
34.665372032421,206.11557327787864,-1.0355500315343333,-19.069180716814667
34.412341095418,206.95193552530233,-1.0145415895726666,-19.507269000535
34.159310158419,207.80404224690733,-0.9581225408609999,-19.938718530662666
33.90627922242,208.678917453718,-0.913147779983,-19.976675559876668
33.653248285421,209.548697358699,-0.8725028407486667,-18.774169337823334
33.400217349417,210.31611673113136,-0.8147209407276668,-17.558236480174333
33.147186412418,211.08939895109333,-0.7667171958436666,-16.517558709553334
32.89415547542,211.77819572707335,-0.7450702974390001,-15.758164092657333
32.641124539421,212.48685562778667,-0.7161419474410001,-16.928925401156665
32.388093602417,213.29243295355366,-0.67100121894,-17.875245098111332
32.135062666417,214.055751036885,-0.6247093599316668,-16.801213991838
31.882031729421,214.76561937295068,-0.5965735381116667,-15.650156900766667
31.629000792421,215.44093913591834,-0.5885881841713334,-15.423948276889666
31.375969856417,216.13406265171133,-0.5494601171569999,-15.097511456603998
31.122938919416,216.78667243485333,-0.5062651166003334,-13.734435897231668
30.869907983422,217.3618911854687,-0.50272039102,-13.376716138373666
30.616877046421,217.96378695689734,-0.461774361461,-13.399549439829668
30.363846109417,218.54486497785402,-0.448630373316,-11.661917067700001
30.110815176416,218.99130447219764,-0.4524345589193333,-10.537810168290667
29.857784236422003,219.464193993885,-0.44579419707733337,-11.917205985690666
29.604753296418995,220.03350991785297,-0.456342863835,-13.399672537827001
29.351722366417004,220.64211505447398,-0.443677159677,-12.991313535752333
29.098691426416,221.16702176916235,-0.4352726605223333,-12.839570156523669
28.845660486418996,221.77938599325535,-0.40750080788133336,-13.547515501977665
28.592629556422,222.37083116617168,-0.35901107315,-13.489655828624999
28.339598616419,222.99254849802136,-0.333279694276,-13.268638738566333
28.086567676413,223.547302913028,-0.280665860491,-11.845128171064
27.833536746424,224.04963426386033,-0.23001792942133328,-11.619121433667667
27.580505806416,224.571944469138,-0.22635461217666664,-12.368874494853335
27.327474866415,225.15279483722603,-0.2369506426036667,-12.145168588074
27.07444393642,225.65730722087866,-0.22870385170566668,-11.052422377622333
26.821412996418,226.144857442318,-0.23475855934766665,-10.67178756221933
26.568382056419,226.62112283258898,-0.24786768669066664,-10.462421411073334
26.315351126423,227.09380901328032,-0.24720202008633332,-9.931699718125333
26.062320186413,227.50960335363266,-0.22435137463500002,-8.603761806422334
25.809289246422,227.86331603508066,-0.21232488504400002,-8.322036519758667
25.556258316415,228.24381099024868,-0.22780859482166668,-8.255094250674
25.303227376416,228.603223404353,-0.24333618788666667,-7.5429907950079995
25.050196436419,228.91628242064834,-0.24679513487399998,-6.675761154685333
24.797165506417,229.21391974523735,-0.2392529772573333,-6.779531782105
24.54413456642,229.55562217731963,-0.23217234043033333,-7.512159497489667
24.291103636426,229.90523409610898,-0.23570461309666668,-7.6574139033319994
24.038072696414,230.25020041685067,-0.2428045536876667,-6.933916454004667
23.785041756423,230.54563607554167,-0.27567434537433333,-6.592957341797001
23.532010826414005,230.85831085581867,-0.31372772359066664,-6.416025992915666
23.278979886417,231.13485132046765,-0.31895250167666667,-5.3509599277056665
23.025948946422,231.34322616787134,-0.3412591843506667,-3.7311082162283333
22.772918016416,231.4726953034623,-0.373761507007,-2.970679150945667
22.519887076421,231.619611614404,-0.400598034316,-3.2888622385766664
22.266856136425,231.7826896202897,-0.4306115321946667,-3.1686581689136664
22.013825206414,231.91084311433767,-0.4709110224483333,-2.6058248693653336
21.760794266425,232.0241222420673,-0.537140355147,-2.6016933496913333
21.50776332641,232.154585108329,-0.5928038787153334,-2.5878853040786667
21.254732396418,232.27645279408333,-0.6497044316506666,-1.8491241684793334
21.001701456423,232.32724683911,-0.6952357630943333,-1.4684245284376667
20.748670516413,232.4131398740207,-0.7641588023603334,-2.012287039471667
20.495639586422,232.510510207543,-0.8408806558186667,-1.4902334064940002
20.242608646427,232.5409002422,-0.8873667438323333,0.22833341636566665
19.989577706412,232.49906782306732,-0.9288690927580001,1.446853824389
19.736546776426,232.42634125980499,-1.0164243382196665,1.1019216031943333
19.48351583641,232.39621973780368,-1.1192145016463333,0.3178926936296667
19.230484896416,232.36929238793536,-1.1981520722636667,1.2188314353023333
18.977453966424,232.26644993095468,-1.2768657859876666,2.4368827330816667
18.724423026413,232.1544151958917,-1.3522962410243335,3.117259635556666
18.47139208642,231.99720289140168,-1.4129401771346666,3.4766952006353335
18.21836115643,231.84138149639,-1.4798129795933335,3.465926966382
17.965330216416,231.66520506322266,-1.5360775432363332,3.9608940188350004
17.71229927642,231.46644865017333,-1.632873498878,4.009780605582333
17.45926834641,231.28576234442133,-1.7312210649526667,3.318391950252334
17.206237406416,231.145509711747,-1.8561078448790003,2.795151264860667
16.953206466424,231.00256022835867,-1.982042059867667,2.9519980244403334
16.700175536419,230.85075431733833,-2.088283443476333,2.921137374649333
16.447144596415,230.70624517210135,-2.2095660226033336,3.1799166434543333
16.194113656421,230.522416515283,-2.3328732008716666,3.1292207065396664
15.941082726413,230.3770164485267,-2.4548764038666664,2.6569351985086667
15.688051786425,230.21820700225567,-2.5656771276186667,3.0221195952326667
15.435020846414,230.05973257982802,-2.683488099877,2.132080231142
15.181989916425001,229.97501535305832,-2.7805988228016667,1.4519094386403335
14.928958976417,229.86532647951603,-2.8847598154043332,2.0260891916533335
14.67592803641,229.71429895469032,-2.977417755899667,2.658952518871333
14.422897106422,229.54928123349336,-3.077017535445666,3.0862883505686667
14.16986616643,229.3635383930857,-3.1886485025219997,2.8614298172506665
13.91683522642,229.20403374589736,-3.3176394181596667,2.239639672920333
13.663804296415998,229.07506166450767,-3.4439057697923334,1.7185217568346667
13.410773356407,228.97609505490496,-3.5559710990343336,1.2479570942613334
13.157742416414,228.89680060616035,-3.663034980052,0.7726643997810001
12.904711486426999,228.819493622324,-3.7816213445169997,0.8031201435986667
12.651680546422,228.71041724728067,-3.881578503174667,1.7647480727156666
12.398649616411,228.550357266676,-3.9595529297913337,1.9501917088923335
12.145618676419,228.40821277840868,-4.048186885660334,0.6850779956636665
11.892587736411,228.355183580952,-4.1310505342353325,-1.2453713758543332
11.639556806427,228.35066723355666,-4.219084779626334,-1.6859305501506665
11.38652586642,228.351364308154,-4.287077070116667,-1.0018996681223333
11.133494926429,228.30528504628737,-4.35946178404,-0.458981317138
10.880463996414997,228.24343751637002,-4.455176430529666,-0.8760877841076665
10.627433056411,228.23010851933466,-4.524472785146666,-1.0650847444213334
10.37440211642,228.1941669862857,-4.586164388703667,0.3659415295933333
10.121371186433,228.036026202828,-4.631187273537,2.0061782012276668
9.868340246427,227.84279857632964,-4.615144289084999,2.0790230311166664
9.61530930641,227.6597309294373,-4.558375190116333,2.0541328081816665
9.362278376408,227.4563056176337,-4.509510856753667,3.1846773535496666
9.109247436416,227.1640905851457,-4.471913703894,4.212209310846
8.856216496426,226.84518439225567,-4.396123012788666,6.084550136596
8.603185566428,226.41072490110267,-4.303746675653334,8.125550885152334
8.350154626405,225.90420876112898,-4.229734497952001,10.058402992743334
8.097123686414,225.31264686849568,-4.158475969436999,11.241075746336
7.8440927564130005,224.70122245762934,-4.092530135340667,12.708336187320334
7.591061816426001,223.97853667263598,-4.038469103249,15.411789344612332
7.338030876422,223.11403180322134,-3.961262499577,17.832691031566
7.084999946435,222.16974769135604,-3.866824141916,20.069150969069334
6.83196900641,221.09531830463865,-3.725522610864333,22.438976903428
6.578938066408999,219.9517579916353,-3.6040844906203335,24.218807125036665
6.325907136423001,218.73911830727567,-3.4684584375823335,26.084422762725335
6.072876196432001,217.41302947009933,-3.272647945204667,29.521327658892336
5.819845256429001,215.901331249349,-3.091952580761667,32.39692268628
5.566814326408,214.319187242486,-2.8919301164246662,33.632880721761005
5.313783386405,212.68370363744134,-2.7204642163596664,36.43039583799666
5.060752446415,210.89084952356765,-2.5562221995856667,39.11039298231
4.807721516429,209.0059381350243,-2.400050833372333,42.120671378067335
4.554690576429,206.96469007500468,-2.2001218903703332,44.703960478629
4.3016596364,204.836598281438,-2.0047956859253335,46.53672927437034
4.048628706414,202.62866191988266,-1.880855219484,49.46381125871067
3.795597766411,200.22717300436332,-1.7442638665899999,52.75036741903466
3.542566826424,197.7354809342,-1.5990936361806665,56.019065998537336
3.2895358964260004,195.04225956004768,-1.4284236012376665,62.436239726972
3.036504956436,191.986267624205,-1.2384987680156667,70.13339682712599
2.783474016406,188.69523293682133,-0.6112517773933334,71.46363346188933
2.53044308641,185.557170240245,-0.49673983909999997,68.875516464775
2.277412146421,182.25730700346435,-0.7129030819816666,65.19089951248434
2.024381206431,179.2734750002087,-0.6941237081716668,70.69898638956734
1.771350276434,175.67960439533135,-0.6479461956263334,86.34349926962433
1.518319336404,171.37926638368103,-0.6202518157613334,103.826753211558
1.265288396403,166.30893629488466,-0.6972431168216667,122.186255577936
1.012257466417,160.613267526417,-0.6913168045276666,144.36463566544234
0.7592265264280001,153.75433849599565,-0.6288834501066667,166.16848646911697
0.506195596433,145.95624841686836,-0.5706150424043334,150.82778516522464
0.2531646564,140.523081458673,-0.610955332778,123.895298436673
