y[m],u[m/s],v[m/s],vorticity[1/s]
33.099885752313,121.69827160934933,-2.083024512833,-5.956591846889332
32.890392804513,121.98657414688599,-2.1577745804236668,-4.7861646299853335
32.680899856713,122.16314109854066,-2.251837756630333,-4.582270134947667
32.471406908913,122.35257410303866,-2.280906027402,-5.207228688478666
32.261913960813,122.54438446723066,-2.281610409788,-4.934344291252334
32.052421012813,122.71990855224932,-2.270892377024667,-4.579421682877666
31.842928065813,122.88391289496234,-2.261280358148667,-4.458062976632667
31.633435117812,123.05371094194534,-2.252380411937,-4.579914217659334
31.423942169812005,123.22064031555932,-2.2456346456353335,-4.574756715186667
31.214449221813,123.39593674692934,-2.2312992941753333,-4.742553638567
31.004956273812997,123.57204466905932,-2.2254508710043335,-4.743039319449
30.795463326814,123.75239782305533,-2.2174462449413332,-5.083256155308667
30.585970378813,123.94927309310133,-2.221421354918,-5.18890859647
30.376477430813,124.139243668513,-2.223496042389,-5.154785301198666
30.166984482812996,124.32998406690801,-2.2014230589226664,-5.378298966037334
29.957491534812004,124.53681246304268,-2.1804245664903332,-5.668193755678
29.747998587812003,124.75125508971034,-2.1665707016256666,-6.012143933557667
29.538505639812,124.992193524612,-2.138252044499333,-6.717293356497
29.329012691812995,125.26192390855734,-2.1064616885346665,-7.038978014044001
29.119519743813,125.522849327019,-2.0891575351596665,-6.836959256953
28.910026795814,125.77072958044867,-2.088460599391333,-6.502931388457
28.700533848814,126.01172678689666,-2.0747202508643334,-6.481724307832
28.491040900814,126.256259270493,-2.060907185919667,-6.410187120824332
28.281547952815,126.49334993191434,-2.039843722892667,-6.337080314596334
28.072055004814,126.72878395844667,-2.0194970388956666,-6.287817600278333
27.862562056814,126.96425004780667,-2.001233064718,-6.121022341750667
27.653069109815004,127.193976408556,-1.9753990251973332,-6.0545217975893335
27.443576161813997,127.41903611344468,-1.9654751439326665,-5.9855543737109995
27.234083213815996,127.64280080007067,-1.955299652008,-5.761367154977667
27.02459026581,127.85651842309399,-1.9326153521940002,-5.508032029715667
26.815097317813,128.06848127393232,-1.9030287431443333,-5.522247309678001
26.605604370811005,128.28044682279733,-1.863526719337,-5.545207176963667
26.396111422814,128.48922681919868,-1.8336999682346666,-5.780560998119667
26.186618474811,128.71576931441132,-1.8090142906516666,-6.101898547504667
25.977125526815,128.95004769136233,-1.7783039144746666,-6.204079031346666
25.767632578812,129.18522649830933,-1.7434496160913333,-6.153856043145001
25.558139630816,129.42298359625397,-1.705246411955,-6.487398997952333
25.348646683813,129.67379006656734,-1.6744845949133333,-6.814624309861667
25.139153735809,129.92518429142402,-1.654689184027,-6.5430862527719995
24.929660787814,130.16603695153069,-1.6273999214410002,-6.347601886009667
24.720167839809005,130.39597442969298,-1.593371426966333,-6.350225352895333
24.510674891815,130.63431731148967,-1.5623056762129999,-6.186451553986333
24.30118194481,130.86102938379335,-1.5307186485996667,-5.870878522228668
24.091688996814998,131.07304668544765,-1.504177163633,-5.608023154315333
23.88219604881,131.27852307313603,-1.472284059882,-5.209343725129333
23.672703100816005,131.46520907366133,-1.4343428203986666,-5.138330391884
23.463210152811,131.66116188273867,-1.4159844654383331,-5.274654664021999
23.253717207815,131.85596612280935,-1.4056611524493334,-5.008591163743
23.04422425781,132.03498081815965,-1.382242224983,-4.855167012713667
22.834731307814,132.21353412278532,-1.3510458193076669,-4.654586239572333
22.625238357809,132.38504982230234,-1.3135411519466667,-4.640628118438
22.415745417818,132.56223700351032,-1.282826378313,-4.7610249481926665
22.206252467813,132.73849836141733,-1.2490863710543332,-4.928338782760666
21.996759517814997,132.9241254607273,-1.219453144007,-4.799552913144667
21.787266567811,133.096022691758,-1.1985634181026668,-4.415446873664
21.577773627811,133.243088586667,-1.1884859775973333,-3.981495638821
21.368280677811,133.38552968096667,-1.171020789957,-3.9379211118756667
21.158787727807,133.5305240313787,-1.1481886601366667,-3.9494817351979994
20.949294777813,133.6787253019497,-1.1230080215716667,-3.757383709985666
20.73980182782,133.81742244025065,-1.0949662335186667,-3.383464115762667
20.530308887811,133.94402837548634,-1.077027951383,-3.197325581665
20.320815937809,134.05560079856068,-1.0696372405266665,-2.990667726545334
20.111322987815,134.16844942188732,-1.0744334244306668,-2.9981799633376665
19.901830037813,134.28020234846335,-1.0680224969286667,-2.8839796389823333
19.69233708781,134.38663830391303,-1.0512226523300001,-2.8092719855213333
19.482844147809,134.485530883772,-1.0355508008493333,-2.569337840083333
19.273351197816,134.57774447457467,-1.018274742908,-2.288819078443667
19.063858247815,134.66131581764932,-1.0017002825313333,-1.9894590011363331
18.854365297811,134.72725313323267,-0.9966634863413333,-1.7614131402139999
18.644872357811,134.79034347156534,-0.985122618417,-1.6087853235753335
18.435379407818,134.85125937854633,-0.9688786579553335,-1.4224809153813334
18.225886457818,134.90779934788398,-0.9453689421920001,-1.2423061530233332
18.01639350781,134.95562403088368,-0.9208485327270001,-0.9321784475009999
17.80690055781,134.98834219573766,-0.9062457570566668,-0.6962774588173334
17.597407617814,135.014727380565,-0.9005855179343333,-0.5166674201676666
17.387914667805,135.03101423717834,-0.8943488893279999,-0.19036430363233334
17.178421717805,135.040156190883,-0.8806447074560001,-0.019021265643666668
16.968928767813,135.04236636417934,-0.8749422236619999,0.33943177799300006
16.759435827817,135.02886438151734,-0.8701204302869999,0.36604712039899995
16.549942877807,135.01287605970367,-0.8485329343096667,0.11560301361166668
16.340449927807,135.0122389648087,-0.8215666722923333,0.23716653572833335
16.130956977815,135.01154054185733,-0.8130827308043335,0.560817491463
15.921464027816,134.99504590569302,-0.8001285014796666,0.6501881166826667
15.711971087807,134.96957277775098,-0.7952824375866667,1.1063006475803332
15.502478137808,134.93010233314567,-0.768298864513,1.180444034824
15.292985187816,134.894859279773,-0.7322976191423334,1.0243365708416665
15.083492237819,134.86062670163503,-0.717633726891,1.194193717436
14.873999297809,134.82571157042165,-0.7052337636880001,1.4431304337743331
14.664506347811,134.76438979726535,-0.6956864595403333,2.0580123564743333
14.455013397819,134.685577813428,-0.6793515687069999,2.318834389698
14.245520447821,134.59950932669202,-0.66793143704,2.4677816398670003
14.036027497808,134.51264395827235,-0.6686073331019999,2.674564667827333
13.826534557814,134.41460236471934,-0.6615301301786667,2.649156602632667
13.617041607816,134.31818305018768,-0.6518114945363332,2.620971908513
13.407548657824,134.21902214503868,-0.644000206812,2.9140351683536667
13.19805570781,134.10460766393533,-0.6356206320386667,3.3334177552866664
12.988562767816,133.98076063188833,-0.633609649859,3.239952692253333
12.779069817818,133.86985514690934,-0.6329712255250001,3.234143713976
12.569576867804,133.74421932249697,-0.6288728475886666,3.46284768452
12.360083917806998,133.60750062944032,-0.619779426352,3.711408798077
12.150590967813,133.47016991345166,-0.6040587158623333,4.029996067011
11.941098027819999,133.31058656783367,-0.5948024741246667,4.4111039821926665
11.731605077805,133.14894911206736,-0.5824396779123333,4.5918940086969995
11.522112127812,132.96931339275832,-0.579532760298,4.834484054380334
11.312619177817,132.78886541843565,-0.5701909581256667,4.94666949789
11.103126227817,132.60890926751566,-0.5572108117183333,5.219806652167333
10.893633287811,132.40981862543597,-0.5527976559956667,5.5837298448990005
10.684140337811,132.20822701315635,-0.5550386585930001,5.553978525462334
10.474647387814,131.99491748979133,-0.5555294977840001,5.704371701036333
10.265154437822,131.77614867571867,-0.5531399469446667,6.6230524327176665
10.055661497804,131.5145789633673,-0.5534247328880001,7.377396199004667
9.846168547807,131.230554322321,-0.5519139203573332,7.551534589231333
9.636675597822,130.94925240733065,-0.5519546097463333,7.5250678891966665
9.427182647819,130.66943199334267,-0.552075617308,8.338087246439335
9.217689697815,130.35290411834234,-0.537461717917,8.717624745357668
9.008196757816,130.01304043963,-0.5167988971966667,9.083725065602666
8.798703807812,129.682819609562,-0.507125612128,9.221129329664999
8.58921085781,129.32499386505833,-0.4974146077436667,9.393921607377
8.379717907806,128.964713697885,-0.48042075881133334,9.699017853827
8.170224967809,128.59672828713533,-0.4643929422956667,10.419442322874334
7.960732017822,128.17965560936202,-0.455793206174,11.858438518061334
7.751239067804,127.72579844908834,-0.4536545257016667,11.419328541190334
7.541746117818,127.29597285857267,-0.45628676268066665,11.303124244947334
7.332253167817,126.85256103875567,-0.4360508558940001,11.879048187390334
7.122760227814001,126.388044679033,-0.400135491193,12.362877388437333
6.913267277816,125.917441093047,-0.39993383061566673,13.092093308289334
6.70377432781,125.43091807945734,-0.41334794823899995,13.443798820538333
6.494281377808,124.90391387472833,-0.40802221564266666,14.226517956546331
6.28478843781,124.36620880831934,-0.39771807063733333,14.346690675570665
6.075295487808,123.81046248881132,-0.3858958758239999,15.602915167238999
5.865802537824,123.24946905929033,-0.38306604040966663,15.750598778904333
5.656309587821,122.63457703894169,-0.364832812443,15.657000756423665
5.446816637814,122.02760725435934,-0.3634573511236667,17.291462030266
5.237323697819,121.36112033421598,-0.37504249479333335,18.292053650251333
5.027830747815,120.624767457286,-0.388796312825,18.900763342462668
4.818337797807,119.932579036046,-0.40364951121000003,17.831433189291335
4.608844847813,119.30413102287667,-0.37729201002499996,15.462171340588334
4.399351907808,118.70642950340533,-0.40203374459933333,18.907747983064667
4.189858957804,117.83862003927133,-0.3702618598493334,23.648921028225004
3.9803660078229997,116.921838866305,-0.38207120837933334,23.528775581671
3.770873057802,116.02681565616335,-0.30592312976033337,22.145342590807
3.561380107822,115.18870679905501,-0.32986662189000004,21.735042027427667
3.3518871678200006,114.38943525083901,-0.27267738731266666,21.43119080161067
3.14239421781,113.549185052157,-0.25346013309733334,23.347747323535
2.932901267819,112.63821162120034,-0.250934276081,24.24974036955633
2.723408317809,111.68343513315365,-0.26867975807333333,25.565089029268336
2.513915367803,110.74031791729966,-0.29451549186366666,27.366971750032672
2.304422427828,109.66354912037765,-0.32032332287799997,28.321578937152335
2.094929477806,108.588497127594,-0.3388909361406667,28.716980345935337
1.885436527828,107.49227341133967,-0.349995883516,28.608142126918665
1.675943577821,106.39634111300666,-0.374794889937,28.279812542689
1.4664506378000002,105.30182248695598,-0.43053005283333334,28.230871179106668
1.256957687822,104.294013407039,-0.4721830940083333,26.224283329491666
1.047464737815,103.299962081548,-0.5525609722773334,20.084896543559335
0.837971787804,102.719543856557,-0.632274448416,7.780365957118001
0.628478837815,102.74213859096666,-0.6453669690436666,-25.40056032464433
0.41898589780799994,104.71133090917267,-0.496394533135,-64.82810895325368
0.20949294779999997,107.837917589656,0.05511209778933334,-77.93068748275665
