y[cm],u[cm/s],v[cm/s],vorticity[1/s]
39.725981027013,87.77797293938234,-0.6769684041163333,-77.48637924880933
39.472950152813,91.43945115796733,-0.597441477213,-75.18022962208165
39.219919278714,94.916945649417,-0.4739636542916667,-70.10322022878768
38.966888404413,97.74266427187366,-0.5911871679386667,-58.05973686154033
38.713857530413,100.195832812029,-0.694741781362,-49.70142448506133
38.460826656413,102.26513673724766,-0.778530563504,-45.21963679569867
38.207795782413,104.29292110494232,-0.8666755180203333,-41.144165564070335
37.954764907414,105.99694498009167,-0.9190982898613335,-32.790511054171
37.701734033414,107.23333146560667,-0.9355706888509999,-27.893886895985663
37.448703159414,108.458444800121,-0.9221628018053334,-29.595808309601335
37.195672285414,109.81690410293,-0.968876962594,-28.161733128293665
36.942641411413,110.93080811521065,-0.9936243060876667,-24.161229598776004
36.689610537413,111.91701457481433,-1.0015042611749998,-25.217503566297
36.436579663412,113.11838558699333,-0.9947368645786666,-24.010100147879
36.183548788412,114.03309438398833,-0.9940871989080001,-18.381450054905667
35.930517914413,114.71978002044166,-0.9979357270193333,-15.637613709918334
35.677487040412,115.38549030936433,-0.9869019190906666,-16.076895731347665
35.424456166412,116.12822183262601,-0.9733593854333334,-16.371837941574668
35.171425292411,116.83413802700234,-0.941086944538,-15.345128024582332
34.918394418411,117.47800646295968,-0.92832796187,-14.133369814431333
34.665363543415,118.07059595168367,-0.9285127150336666,-14.2936840303
34.412332669414,118.71134096551701,-0.921706589821,-15.677926751938665
34.159301795413,119.42390041811599,-0.8919083216506666,-15.090735325685666
33.906270921412,120.02310915101434,-0.8539606788096666,-12.645795276514
33.653240047413,120.51035057073568,-0.8172402680813332,-11.383898363841666
33.400209173412,120.99306217166468,-0.7914641024266666,-11.172781270717001
33.147178298411,121.460634375008,-0.7758146937746666,-10.777262186794667
32.89414742441,121.91197456158534,-0.7680400937423334,-10.408234999227666
32.641116550416,122.34273985275466,-0.751078035964,-9.949328856723334
32.388085676416,122.76386454811568,-0.7189044319969998,-9.580401645681333
32.135054802416,123.158688109595,-0.6725190577700001,-8.688371352522
31.882023928416,123.50588802815999,-0.6515469650643333,-7.466303101952666
31.628993053416,123.80928027678367,-0.6326069548636667,-7.080941037750667
31.375962179415,124.12713105603734,-0.6153475223483333,-6.708391661882668
31.122931305415005,124.39298693813066,-0.5993019563916667,-6.787310430421333
30.869900431415,124.71987022434968,-0.5683763301296666,-9.200992008683667
30.616869557417,125.19122442387435,-0.519053989155,-11.611634987686665
30.363838683417,125.74053165700866,-0.487997982234,-12.051406555325334
30.110807806415995,126.25146369783101,-0.4850469782806666,-11.266705622199666
29.857776936416,126.73543425483734,-0.48470800753033333,-10.749926711903
29.604746056414,127.209115878249,-0.48617087451666663,-9.992241276919334
29.351715186415003,127.62492562658099,-0.48230073559966663,-9.310736593782332
29.098684316415,128.026002172856,-0.47226700322000004,-8.308839179947334
28.845653436413,128.35715196995,-0.4625564475713333,-7.113094869803999
28.592622566413997,128.656238671878,-0.4412430825413333,-7.078470741413
28.339591686411,128.97271381545033,-0.4172427579623334,-6.784647217374999
28.086560816412,129.25405006796032,-0.39543319064466664,-6.2918382254416665
27.833529946413005,129.535538005667,-0.37908778845700003,-7.532126309059667
27.580499066411004,129.925567475642,-0.37931663412299993,-8.795021007771666
27.327468196411,130.32535135052134,-0.3791589494596666,-8.860528019025
27.074437316409,130.7196566571653,-0.3617013407643333,-7.658031998035334
26.82140644641,131.006820565286,-0.34400952840166665,-5.858755309239332
26.568375566409,131.23512263326,-0.3376886271786667,-5.507251939518667
26.315344696410005,131.48926545775032,-0.34071146915433337,-6.160504050277001
26.062313826409,131.77242240222836,-0.31920605170633337,-6.659354478371334
25.809282946408,132.0757677708743,-0.30600434892966666,-7.2808897004606665
25.556252076409,132.41086556376135,-0.2978106711663333,-7.069364426691667
25.303221196406998,132.70604938262568,-0.2891474467076667,-6.302217241364333
25.050190326408,132.97120218270467,-0.27703626464233333,-5.538911050615333
24.797159456408,133.19284282971367,-0.26347572382766665,-4.713177484980666
24.544128576413,133.39438174037866,-0.276946235775,-4.833375754188666
24.291097706407,133.63069987327833,-0.2863835176916667,-5.596868773324334
24.038066826411,133.896405944887,-0.2942579568476667,-5.851106009153
23.785035956412,134.15705892493068,-0.3014089805403333,-5.416068638066666
23.532005076408996,134.376491447788,-0.31531731318100004,-4.204580139177
23.27897420641,134.54119195235668,-0.3416996354246667,-3.181485490685333
23.02594333641,134.66941961389466,-0.357202047326,-2.344546120233667
22.772912456407,134.76068744002032,-0.3681721855676667,-1.5793160148903331
22.519881586408,134.81587211690868,-0.37164294860133334,-0.924922629447
22.266850706407,134.84296453706335,-0.4019055471676667,-0.548311950746
22.013819836408,134.86808090252302,-0.4364557664003333,-0.7451254428226667
21.760788966406995,134.91503348709998,-0.47719739351533336,-0.9047582433473332
21.507758086405,134.957449452038,-0.5131980807746667,-0.6783533979873333
21.254727216406,134.98544563134303,-0.5467771986393334,-0.121171860518
21.001696336404,134.97718765342466,-0.5762881994266666,0.34458472554766667
20.748665466404,134.96092541567,-0.6073392177726666,0.772328833723
20.495634586423,134.91746563227767,-0.6512137191100001,0.8666438342633332
20.242603716424,134.88887158572066,-0.7049897204063335,0.7663771836376666
19.989572846403,134.84900168682168,-0.73413669713,0.517026002007
19.736541966423,134.85661371160268,-0.785953054889,-0.4315959685453333
19.483511096424,134.90680586796466,-0.8532078834610001,-1.021760318911
19.23048021642,134.95183145992368,-0.9047177220746666,-0.1801520542673333
18.977449346422,134.93688739629033,-0.9465869394983333,1.359392265867
18.724418476421,134.84289837972565,-0.9768665087909999,2.407611475567
18.471387596421,134.73512304090698,-1.0231056998926666,2.427711415207
18.218356726419,134.63552060829966,-1.0982267901273333,2.0620820598573335
17.96532584642,134.55359090535902,-1.1586668216096667,1.934315062444
17.712294976417,134.47040150667934,-1.2210802440556667,1.3185415706126669
17.459264096419,134.438667065428,-1.313694417224,0.34574743716100004
17.206233226415,134.44174747384434,-1.3891435567683335,0.3240661134266667
16.953202356421,134.41024495162034,-1.439213151455,1.0598924357643333
16.700171476412,134.34831942171533,-1.492004734102667,1.7742099315080002
16.447140606419,134.26725446703566,-1.5333391977793334,1.916602066257333
16.194109726414,134.19495108406565,-1.5725251433953333,2.6248777707759996
15.941078856422001,134.05207836461932,-1.6344033360373336,3.1007565498053338
15.688047986411,133.925028050318,-1.7202502594756666,2.983154769990333
15.43501710642,133.789848945052,-1.8041977016980002,2.861468088089667
15.181986236413001,133.672615275824,-1.880819984553333,2.7760785710393336
14.928955356419001,133.55122841445998,-1.9610022467376667,2.438875067165
14.675924486411,133.46785039656535,-2.039856192983,1.8940682199296666
14.422893606418,133.40499023635968,-2.115508061035333,1.3070844805396666
14.169862736408,133.3678683471173,-2.1791123992286665,0.5096392099133333
13.916831866419,133.36989921793932,-2.2485422248366667,0.173651150432
13.663800986406,133.35789062289368,-2.346532384049334,0.21250777238766663
13.410770116418,133.35138245233836,-2.457001493362,0.09019796352233338
13.157739236404,133.356547971548,-2.547488896483,0.15591976725599999
12.904708366415997,133.338211459864,-2.636147470798667,0.475311829913
12.651677496405,133.321417515746,-2.706497033923,0.15821029958933336
12.398646616414,133.31967388479066,-2.774000026613333,0.23020033002333332
12.145615746403001,133.30019023899968,-2.8293464116556666,0.07691343341700008
11.892584866412,133.30560191592335,-2.879572846730667,-0.3557370384673333
11.639553996426,133.32239528185366,-2.920013377562333,-0.921540140618
11.386523116409998,133.37755581324967,-2.9522471112296667,-1.0689641794753333
11.133492246425,133.40059348994302,-2.981516198241,-0.7889630273863334
10.880461376412,133.426321438695,-3.0123010921653335,-0.22183735283600003
10.627430496423,133.39994187614434,-3.0363215722806665,0.25342788631700003
10.374399626411,133.382462274638,-3.0676582080883334,-0.273154961672
10.121368746423,133.40683227837033,-3.111960504695,-0.3899081524673333
9.868337876409,133.39777645934035,-3.1502693965656667,0.15514128973266658
9.615307006425,133.37078948482366,-3.159609946044,0.3654469474289999
9.362276126407,133.33851746348034,-3.1741323750476673,0.9076210421866668
9.109245256424,133.25627948647633,-3.1746770922916667,1.6129317849386666
8.856214376406,133.16939505390465,-3.1651364422216663,1.8483569060200002
8.603183506422,133.06246064536467,-3.1565863570549997,3.2891484191690004
8.350152626407,132.84615109845902,-3.1238271556103334,4.6322641529399995
8.097121756421,132.61356561417466,-3.0745912641556665,5.386322960775666
7.844090886406,132.33528872507966,-3.0072732176743333,6.066395005346333
7.591060006423,132.04183109700932,-2.9529459338403328,7.5998449969143325
7.338029136406999,131.63131655196966,-2.883210826991333,9.843961675962667
7.084998256422,131.14083504905432,-2.7873175062486664,11.335151159360334
6.831967386405,130.59264033949833,-2.68613424139,12.047454814423666
6.578936516424,130.04092465826335,-2.5916585262886667,13.192429580856
6.325905636403,129.38641031446167,-2.4776269972823335,14.61649681355
6.072874766422,128.70677909260667,-2.3595796411326666,15.474356588773666
5.819843886402,127.95917199795467,-2.2186303735553334,17.528929811005668
5.566813016421,127.09437395570568,-2.0817090454200002,19.742583011222333
5.3137821364,126.14228586287898,-1.9509366484503332,21.580883163955665
5.06075126642,125.12268660204501,-1.8185035004856667,23.595469616524667
4.807720396402,123.98638920172867,-1.6802013824389999,25.475739201436
4.554689516418,122.79808209350067,-1.5350825912746666,26.558330645982
4.3016586464,121.56624109067866,-1.4034080921896666,27.315434840297
4.048627766429,120.30212534061032,-1.272422561349,28.384685381682335
3.7955968963980005,118.96147938036033,-1.1415772143410001,30.323563089929667
3.5425660264190006,117.53358044391034,-1.044553227264,32.47361235858167
3.289535146408,116.01411369150033,-0.9611980284506666,35.730709853666
3.03650427643,114.27350176308532,-0.8296954276980001,45.59765228187266
2.783473396406,111.85236940391667,-0.557354100575,45.87405330381134
2.530442526428,110.09523353801067,-0.468788850066,33.740908770910664
2.277411646404,108.733834092785,-0.551893839425,33.516589084585334
2.024380776426,106.88841964330601,-0.5051886261256667,44.642626038924
1.771349906406,104.63370217388001,-0.4392610047866667,52.83336578600367
1.518319026425,102.083007471352,-0.4015412510843333,62.301142393757324
1.265288156404,98.997964641672,-0.41318006693000003,74.67200325819134
1.012257276423,95.43958243466267,-0.34534088035899996,88.54295182620467
0.759226406402,91.11065096886,-0.284454220265,103.61647869942499
0.506195536425,86.12891451250398,-0.2119502323136667,97.084672791231
0.2531646564,82.35708527891234,-0.26327627744666665,83.11101976658101
