y[m],u[m/s],v[m/s],vorticity[1/s]
37.682868409913,35.49340553651266,0.266521587426,-14.499732166986666
37.439753129913,36.12220972535633,0.28398197483599996,-12.310757977150333
37.196637849813,36.56279112155966,0.2843366893843333,-10.211025081582333
36.953522570013,36.99820533114367,0.2875856793923333,-10.050837822621334
36.710407290013,37.42751605741933,0.288426495292,-9.518039321301666
36.467292010013,37.820478373886665,0.29020981949200003,-8.811091353346667
36.224176730013,38.189097838976004,0.30460843876866667,-8.158207591207999
35.981061449013,38.51825190128134,0.32094145795800005,-7.3732713575833335
35.737946169013,38.813797454465664,0.3271513795316667,-6.652431648477333
35.494830889013,39.083872217445666,0.33789989222166666,-6.087412477872333
35.251715609013,39.33024781357167,0.34996441382466664,-5.576133598714001
35.008600329013,39.55479527803033,0.3568236578453334,-5.114744677037
34.765485049013,39.761390489305,0.36812828311666673,-4.798225843274667
34.522369769013,39.95332260735167,0.37872856478833333,-4.362709301166
34.279254489013,40.12484199275334,0.383669693744,-3.8067965605093335
34.036139209013,40.275034892823335,0.385846749048,-3.363037045291
33.793023929013,40.40748511569066,0.38491833375199996,-2.9606553943886667
33.549908649013,40.52220659813967,0.38136321166500003,-2.5020553844753333
33.306793369013,40.613186872677666,0.3800763482323333,-2.037995299299
33.063678089013,40.686118034633665,0.37972160257466664,-1.7899051154536665
32.820562809013,40.755893995409004,0.37666885205233336,-1.6442474201566666
32.577447529013,40.81760417786833,0.369515981186,-1.367732963063
32.334332248013,40.864725885196,0.36251987713833334,-1.0337749843753332
32.091216968014,40.899771592520665,0.3570161188893333,-0.8510898771706668
31.848101688014,40.93078343530067,0.35072086241833333,-0.8653044744416666
31.604986408014998,40.96749844424833,0.3412638104186667,-0.916984902201
31.361871128015,41.00570901511333,0.33322295870233337,-0.8846095409676668
31.118755848015,41.041197430958334,0.32617631838033334,-0.8510677368183334
30.875640568016,41.074445270354,0.31560093228866665,-0.8160089870973333
30.632525288016,41.10551300400633,0.30110950201000003,-0.745496829647
30.389410008016,41.13340188590033,0.288644423609,-0.6365949966423333
30.146294728016,41.15661897137233,0.27770511876366666,-0.6070345210323334
29.903179448017,41.182944976219666,0.267264148463,-0.5963425229366667
29.660064168017,41.20894171630233,0.258407182302,-0.477411345482
29.416948888017,41.226100896256334,0.25013037245766667,-0.38259899484733334
29.173833608017002,41.24356200319934,0.24066346790666668,-0.33838513222333333
28.930718328016997,41.258053929465994,0.2303001611543333,-0.24324093000066668
28.687603047016996,41.26857007974367,0.215621559126,-0.16035358486066667
28.444487767017005,41.27715872723266,0.19815239693833334,-0.09663289662399999
28.201372487017995,41.28141913778333,0.18017665767933333,-0.14191765714866666
27.958257210008,41.28933326348733,0.16448749483333336,-0.223967835068
27.715141930008,41.299897802896,0.15029869546066665,-0.24505009452366666
27.472026650008,41.31104920616133,0.13534600014366668,-0.21325926686100002
27.228911370009,41.320116046981006,0.12302079934366666,-0.16371617608366665
26.985796090009,41.326827608319995,0.11138931015033333,-0.18749271122699998
26.742680810008995,41.336711751875335,0.10213338486733332,-0.22535957399066664
26.49956553001,41.34714363798266,0.093303914473,-0.14903390660533333
26.25645025001,41.34893275693567,0.08003466518033334,0.02560063580233334
26.013334970010003,41.34195691353333,0.06353892109766666,0.13561150831966665
25.770219690011,41.334832156204335,0.04528307392366667,0.129675239581
25.527104410011002,41.329784339696,0.029106733017666666,0.07879972350233333
25.283989130010998,41.3274352052,0.02006354455233333,0.035121523371666664
25.040873850011,41.323003679852,0.015542175585333334,0.07485818738100002
24.797758570011997,41.31797907303,0.008560813704,0.07561852410333335
24.554643290012,41.31603091599867,-0.0047171237653333324,0.076261837757
24.311528010012,41.31285480401533,-0.020593080078666667,0.09477161049599998
24.068412730013005,41.30641950789433,-0.035454648877,0.15932109145166665
23.825297450013,41.297284768914665,-0.04614103689566667,0.249895424076
23.582182170013,41.28443006830633,-0.05425830632533333,0.40953104532699997
23.339066890013,41.26280965829833,-0.06296348087533334,0.580951327764
23.095951610013,41.23378824047867,-0.07015535714133334,0.5982588896456666
22.852836330014,41.208040266044,-0.08060543170033334,0.516401194856
22.609721050014,41.184862276097995,-0.09273016159733334,0.5025414578666667
22.366605770014,41.16064645746267,-0.10489533352466666,0.5474249508276666
22.123490490013996,41.13391260667367,-0.11767454175666665,0.6103109554686666
21.880375210014005,41.10486495745,-0.1322003990443333,0.5948239736806666
21.637259930014995,41.078939850978,-0.14294020195366666,0.49731977832700003
21.394144650015004,41.05861152381233,-0.14875942054666666,0.461351820067
21.151029370015,41.03662419622166,-0.156138136232,0.4829295104683333
20.907914090015,41.013528039610335,-0.167944503105,0.5616533853166666
20.664798810015,40.985485742712335,-0.17785106937266668,0.7272813277859999
20.421683530015,40.947825016635996,-0.18519170842366664,0.8506790244833334
20.178568250016,40.908158023603995,-0.19297391946866668,0.8262310180106667
19.935452970016,40.874671979741,-0.20037238329266668,0.7326654544083334
19.692337690016,40.844258537146004,-0.207870298737,0.7208458219216668
19.449222400018,40.81034722173967,-0.21871796202333335,0.788965708578
19.206107120018,40.772318916398,-0.22796759131766664,0.8525479619893334
18.962991840019,40.734401527665,-0.236836763678,0.8577535583206667
18.719876560019,40.696575631371665,-0.24604358439500004,0.888475073061
18.476761280019,40.65522699465067,-0.255504132082,0.9878101139309999
18.233646000019,40.60925923761567,-0.26664532943333336,1.094533501607
17.990530720019,40.55985035923167,-0.27706600550666666,1.1391156279473333
17.747415440019,40.51063888516967,-0.283904656731,1.214253493464
17.504300160019,40.45390794509634,-0.29031753452833337,1.3730820648436666
17.261184880018,40.387982943693,-0.297956435606,1.4623627882716665
17.018069600019,40.32269816981566,-0.304444477594,1.4273254229723333
16.774954320017,40.26080775836233,-0.30681060409733335,1.394414911811
16.531839040019,40.200362037744334,-0.3088455236816667,1.4318117473206666
16.288723760016,40.13571829665967,-0.310565260382,1.5149971558476667
16.045608480019,40.06766611077833,-0.31338682229333337,1.5588452938656667
15.802493200016,39.999239897732004,-0.31323639417666665,1.5693136542463335
15.559377920018997,39.930544374542336,-0.313870952376,1.6228793205263334
15.316262640015,39.858440181006664,-0.317416393192,1.7615796365683334
15.073147360019,39.777524400967664,-0.320806513638,1.895903509975
14.830032080014,39.694921250984,-0.325639440003,1.8951881698536666
14.586916800019003,39.61479355657167,-0.3304725406633333,1.952295265652
14.343801520013,39.528471307206,-0.3317687346293333,2.042540388896333
14.100686240019,39.438059211581994,-0.33604045113400005,2.1206169648980002
13.857570960012,39.34256543044933,-0.34354164936966675,2.262148058425667
13.614455680019,39.239830241753,-0.3506050775243333,2.4256804743706666
13.371340400012,39.12882514336567,-0.3495511919613333,2.551184513940667
13.128225120019001,39.01306828879533,-0.343687596764,2.621859823851
12.885109840011,38.89526708419867,-0.33939285364933336,2.6901442933456665
12.641994560019,38.77659242713967,-0.33655751155499997,2.7198691776956667
12.39887928001,38.658156419617,-0.3316476816303333,2.7308226579903327
12.155764000019,38.53851163081733,-0.32750606585500003,2.740462168819333
11.912648720010003,38.41930560369633,-0.32885385259466665,2.6317718776166665
11.669533440019,38.307886952977,-0.336175077281,2.521480602394
11.426418160009,38.19668248753501,-0.3417639865056667,2.6736732384096666
11.183302880019,38.071576075694,-0.347381191633,2.8774173551303335
10.940187600008,37.944372227339336,-0.34922812712366663,2.9236248643323335
10.69707232002,37.81644112739533,-0.34764579752300007,2.989979924519
10.453957040008,37.68133380784867,-0.34180395371466665,3.152117831198
10.21084176002,37.53914951538733,-0.3348385767106667,3.3662028617623334
9.967726480007,37.385941276051,-0.327050777628,3.587570391584
9.72461120002,37.22565222691767,-0.31916601341033335,3.6762040614930007
9.481495920007,37.06377398936367,-0.3101703808943333,3.669722700866
9.23838064002,36.904273055027325,-0.29699011371466666,3.681279469175333
8.995265360006,36.741532247484,-0.280233671865,3.8533210781180003
8.75215008002,36.56837661999767,-0.26793240083733333,4.019041600325334
8.509034800006,36.38983559787667,-0.2577102007566667,4.142905139314
8.26591952002,36.20613036322567,-0.24558675281833334,4.270868404242667
8.022804240006,36.01530429005433,-0.22700196587833332,4.453961852119334
7.77968896002,35.815333784172,-0.21149345777066664,4.650745383542
7.536573680005,35.606589999795666,-0.19596095261566668,4.818423814249
7.29345840002,35.39377442626167,-0.18206672777366664,4.977310446969334
7.050343120005,35.173281929593,-0.1633021833,5.1048369547190005
6.80722784002,34.94782638968267,-0.14287963792733333,5.103287895162333
6.564112560004001,34.724456426498996,-0.119783201447,5.177058496409333
6.320997280019999,34.491427541319666,-0.09965387641033334,5.526580125354999
6.077882000004,34.24108854463034,-0.082829251219,5.952319525638667
5.83476672002,33.970825252178,-0.05767192744233333,6.277954312396333
5.591651440003001,33.691363893159,-0.033380400723,6.480064389105333
5.34853616002,33.40344960187534,-0.018850961205999998,6.648771889234001
5.105420880003,33.108168989714,-0.005954956337000002,6.798152817342667
4.86230560002,32.804947823269,0.0026740430726666666,7.084062891563001
4.619190320003,32.48607807231833,0.013347698445,7.477124724366
4.37607504002,32.148948053551,0.028896039170333333,7.857025063594667
4.132959760002,31.797814939463,0.042326260754,8.129089995346334
3.8898444800200003,31.432082152969667,0.057988282326,8.451020589809
3.646729200002,31.05272674875667,0.06945394320733334,8.619534258475667
3.40361392002,30.67279369230633,0.08187380924966667,8.655391322372667
3.160498640002,30.290181206621337,0.08158691945933333,8.092395813115667
2.917383360021,29.97241197188733,0.006736352713999999,10.526944188381
2.6742680800010006,29.484678880545,-0.03179047853,12.887918958782999
2.431152800021,28.910609039326662,0.057032991117,11.905595487670666
2.188037520001,28.422551619809997,0.06422398254833334,11.730537183471
1.9449222400209998,27.878443355233667,0.06566206756666666,13.296678264774334
1.701806960001,27.249597363818335,0.058752828624,15.499331098309
1.4586916800210001,26.506352388861,0.03571179732833333,18.255400097098
1.215576400001,25.63308417820633,0.005867900107666667,21.257386065397665
0.9724611200209999,24.630147184936334,-0.024869985910666664,23.356419172248668
0.72934584,23.573352695845,-0.08325692490133334,19.502355695699666
0.486230560021,22.914592351299333,-0.100660565175,5.243929222090666
0.24311527999999996,23.132633543028334,0.09176368143466668,-4.5628724549063335
