y[cm],u[cm/s],v[cm/s],vorticity[1/s]
39.411057238979,23.195358523033665,-0.5250302099703333,-26.805861996143665
39.139256844979,24.501615787851666,-0.360676418924,-24.776211120232333
38.867456449978,25.70793593703033,-0.24235710553,-22.775069964800668
38.595656054981,26.87906466665967,-0.24387221070433332,-19.024557123342998
38.323855659981,27.769110493223,-0.249757474859,-14.642657069499998
38.052055265981,28.444457570969334,-0.2686338159823333,-11.777667988889666
37.78025487098,29.009873037178,-0.2848377286386667,-10.33658017185
37.508454475981,29.538341821428663,-0.30187750061799995,-9.634619306393667
37.236654081981,30.018600487767667,-0.321024053148,-8.804786895017665
36.964853686979,30.450562133443338,-0.3326789263,-8.030798572232
36.69305329198,30.850522500504002,-0.3431171517943333,-7.3958069891993325
36.421252896981,31.213962910783,-0.35152314351633335,-6.685205057845667
36.149452502979,31.549502710769,-0.364689580597,-6.194215003135334
35.877652107981,31.861338603951335,-0.37710436132866665,-5.754651331759667
35.605851712977,32.149701342916664,-0.38482169587933335,-5.4619295647433335
35.334051317981,32.419433747063664,-0.38123478744966666,-5.155597533668
35.062250923977,32.68183217886167,-0.37556053245433335,-4.855190289632333
34.79045052898,32.932942493587,-0.369869986436,-4.689915835708667
34.518650133976,33.175073224422995,-0.36631859096833336,-4.669205507341333
34.246849739983,33.41621968499433,-0.36192876677400004,-4.610598474928
33.975049344978,33.652510170838,-0.3563371991206667,-4.458837722080333
33.703248949982,33.88213058817333,-0.3483770197746667,-4.3367354089736665
33.431448554976,34.10649428865167,-0.3421354902416667,-4.316530587603666
33.159648160982,34.32736334882333,-0.33137002799500004,-4.1977738171370005
32.887847765976,34.539005855477,-0.3201423616253334,-3.976073666175667
32.616047370981,34.743857520253336,-0.311364252558,-3.8841469528489996
32.344246973985,34.946464492368996,-0.30268278756399997,-3.9567693017409997
32.07244658398,35.151558492135,-0.291925837765,-3.9060663744929998
31.800646183983,35.356394384426004,-0.2783852756233333,-3.8881333610056665
31.52884579398,35.55331659369367,-0.26771607110833334,-3.8185883392803333
31.257045393983002,35.748287139033,-0.2540868345173333,-3.6890586300116666
30.985245003977,35.934966942919665,-0.23851579539033332,-3.553132136125333
30.713444603979,36.11701378642667,-0.22101218232633335,-3.541157859185333
30.44164421398,36.303542436711005,-0.20864569771833333,-3.490423466382667
30.169843813983004,36.47906574163667,-0.2045460101776667,-3.318634265916
29.898043423975,36.64392220441733,-0.19572205490733333,-3.1874987716363337
29.626243033978,36.807328149955666,-0.18235618251233335,-3.0537944067153333
29.354442633981005,36.96605665381467,-0.17120116143133335,-3.100743262405
29.082642243984,37.128073911082,-0.16002973122800002,-3.1990391237380003
28.810841843975,37.28957398272333,-0.14960861312233334,-3.2193162540533335
28.539041453976,37.45393397568233,-0.13938774573066667,-3.121210564887667
28.267241053978996,37.613008162304,-0.12156222231633333,-2.9878632188686667
27.995440663982,37.76874462420133,-0.10855566136999999,-2.963850247856667
27.723640263978997,37.91848774164567,-0.09436532328233332,-2.867165978284666
27.451839873973,38.061522268447334,-0.07824264568133334,-2.787808118961
27.180039473985,38.20363170284467,-0.06493601874766668,-2.7386273682686664
26.908239083979,38.344747368902,-0.05980958442966666,-2.726923554535
26.636438683976,38.48277843411367,-0.05742602229133333,-2.8093543463096666
26.364638293985,38.62244925273767,-0.052183765065,-2.8903210085789994
26.092837893983,38.767524346261666,-0.04556381820266667,-2.8172562174736666
25.821037503976,38.91089345389,-0.039451823256,-2.7387702431116665
25.549237103973997,39.04833863388166,-0.031564234894,-2.6016868745026667
25.277436713985,39.18210888225567,-0.02306130720133333,-2.6537954664470003
25.005636313982,39.319085314921004,-0.016525630394666667,-2.635648639722
24.733835923975004,39.453929064677,-0.013128715219333334,-2.493356241018
24.462035533974,39.57704844401834,-0.007203256787666666,-2.376118801954333
24.190235133983,39.696165748851335,0.0006468225093333307,-2.2887360914923334
23.918434743983,39.813941441925,0.007785253611333337,-2.274641227991667
23.646634343972,39.93537631207466,0.008548556473000004,-2.391303171428667
23.374833953970995,40.06457455236733,0.007275806536000004,-2.491841586971667
23.103033553987,40.200256309413,0.010221812473333333,-2.538371383565
22.83123316398,40.33055241275333,0.012651757624333335,-2.429014241536
22.559432763975,40.447525938424,0.014681300578666664,-2.1876205775753337
22.287632373990004,40.559373598823335,0.02338788110866666,-2.1938815912643332
22.015831973983996,40.68128121862867,0.03302519026266667,-2.489552313914667
21.744031583978,40.80320387620767,0.04311253634933334,-2.3599706602356663
21.472231183972998,40.91468219350967,0.048451639097,-2.0730138922213333
21.200430793988,41.01750324621633,0.054757446019000004,-1.970729866136
20.928630393981,41.121874794880334,0.056969968642,-1.9928371935466664
20.656830003976,41.228824388031335,0.058704544879999994,-1.9914125508856666
20.385029603973,41.327561036915,0.061137827666000004,-1.9099199362183334
20.113229213982,41.4139575897,0.06757890955033333,-1.720252567315
19.841428823984,41.495676307297664,0.077546598016,-1.72214594904
19.569628423978,41.585127877802,0.08465931648999998,-1.8403246924119998
19.29782803397,41.67512601487267,0.085208748553,-1.8199583724019999
19.026027633984,41.762158871317666,0.08565531048366666,-1.6518549618866665
18.754227243975,41.84726852813534,0.08823864509200001,-1.5735395770213332
18.482426843974,41.932272456768665,0.094612134025,-1.5735598738266665
18.210626453974,42.01337483600567,0.10315274775033333,-1.6331427986553333
17.938826053978,42.09825466195533,0.10716880480166667,-1.594031821685
17.667025663978,42.17381543896866,0.11097414759699999,-1.5314643840776665
17.39522526398,42.246690868340664,0.11572323721366666,-1.4457787257203334
17.123424873982,42.31714201909933,0.11398582276433333,-1.2971916214663335
16.851624473984,42.384800756036334,0.11068387234033333,-1.2404313904503332
16.579824083985,42.44855139648967,0.11020285643566667,-1.2544362316903335
16.308023683969,42.511105114946,0.10776962197333334,-1.1148171400390001
16.036223293989,42.566961541316,0.09983256383966665,-1.057758411776
15.764422893971,42.62935347749967,0.09156094496533333,-1.1936231932483334
15.492622503973001,42.69297917875067,0.08817891247299998,-1.1881719233293333
15.220822103977,42.751042730839664,0.09117785791100001,-1.0345283922473334
14.949021713975,42.80216806531067,0.09191423942433334,-0.8436471437853332
14.677221323982002,42.843342156066335,0.09587652341533333,-0.7014118762906666
14.405420923983,42.880387124109,0.09070830945433334,-0.7996336038813334
14.133620533967,42.92543575512034,0.082863585555,-0.870326632808
13.861820133988,42.96750577387767,0.074755856766,-0.7768270604883333
13.590019743966002,43.00243443625967,0.06513070610633333,-0.6513207032066667
13.318219343971998,43.03324075531899,0.05889552291,-0.6341861471089999
13.046418953993,43.06617980779467,0.055023402075000005,-0.5811751346633334
12.774618553971,43.09390087403867,0.048208518316,-0.5282505722273333
12.502818163977002,43.125744520901,0.04437017349633334,-0.47052415298966666
12.231017763984,43.14966397024799,0.036024444703,-0.3989225324053334
11.959217373975,43.17211361103,0.033927635328,-0.24857390140933333
11.687416973983,43.18197121103267,0.03312029199233333,-0.045439401868999994
11.41561658399,43.183507711697665,0.035230660505999996,0.055288078730666664
11.143816183966,43.18276072166666,0.030591997625666667,0.21208203369233333
10.872015793988,43.164295606482995,0.022747704424333336,0.37260028267899997
10.600215393964,43.143652029279,0.008529966434,0.48779668822066663
10.328415003972,43.12049249071299,-0.001105938651,0.7139485888223334
10.056614603994,43.08749351399734,2.4067105333333793e-05,0.8206985126436667
9.784814213969,43.052189765416664,0.00018963473266666678,0.8884829798720001
9.513013823981,43.004328261486336,-0.0035304936199999997,1.0720399784623333
9.24121342399,42.946097471461,-0.005493433685999999,1.3563207846206666
8.969413033978,42.875420360350006,-0.011058530612333332,1.5426256910696665
8.697612633986,42.79952456816633,-0.011965826494999998,1.9397398058183335
8.425812243996,42.704790152659335,-0.014454637978333336,2.2637159555659996
8.154011843969,42.594344951865,-0.016149834718333336,2.414755798955
7.882211453993,42.46109295346467,-0.016540353705,2.973480104623333
7.610411053965,42.296524696359334,-0.0031018081213333333,3.4936384865473333
7.338610663975,42.11454552526633,0.012278039385333334,3.836582292186
7.066810263986,41.91640596007134,0.020215756757000002,4.344096808992666
6.795009873971,41.68525516116801,0.030342499735333334,4.887782997921667
6.523209473981001,41.433813902973334,0.039586874205333335,5.229173823943333
6.251409083991999,41.17435878401766,0.05278882793966667,5.491424195301001
5.979608683963,40.89582427760734,0.069331256439,5.941358624076667
5.707808293987999,40.587859522151,0.07118700919766667,6.490147539961334
5.436007893998,40.249726847131676,0.06632950251933334,6.972161064394666
5.16420750397,39.89316868486367,0.07188220665066666,7.384320293789667
4.892407113985,39.519294599988996,0.09144236062633333,7.682639209473667
4.620606713967,39.132634689680664,0.110205674014,7.905217751264668
4.348806323979,38.730940772856336,0.12750118634666666,8.383787265022667
4.077005923991,38.29061915175867,0.14805723761433331,8.910681589988
3.805205533973,37.834011133489334,0.157105329811,9.267306234761667
3.5334051339850006,37.357903980421334,0.161646792565,9.663441421686334
3.261604743998,36.86213115722634,0.16297754198433334,10.149530153642667
2.989804343967,36.331497037767,0.15866102868066667,9.591729645384667
2.718003953992,35.898414874561674,0.22916743157566666,11.057539778245333
2.44620355396,35.279554807025,0.2429401673746667,13.464497759107331
2.174403163974,34.561383038133336,0.24731958768200002,14.590569636503334
1.902602763987,33.761499065457,0.15922816699933334,15.471111210001666
1.630802373967,33.025853551229666,0.13052621986266666,15.322649849943334
1.359001973979,32.228219891467,0.09848994397366667,16.609142861791668
1.087201583993,31.339303630058335,0.07431361874766666,19.146124133637
0.815401183972,30.289079182392,0.05389635898133333,21.653668184679663
0.543600793989,29.155642177529668,0.02964229566733333,23.068627013794
0.271800394,27.984937308097333,0.074314780603,23.741105597215
